# k =  0.00000000E+00  0.00000000E+00  0.00000000E+00 spin= 1
 # n1 <i|Sigma_ch|i> (eV), partial sum
 #      nbands   ch(vbm)          ch(cbm)           diff        converged
       1 -0.13211555E-01 -0.14713580E-01 -0.15020248E-02 -0.25160208E-01
       2 -0.28180158E-01 -0.29266536E-01 -0.10863779E-02 -0.25160208E-01
       3 -0.41484961E-01 -0.46552303E-01 -0.50673415E-02 -0.25160208E-01
       4 -0.58650705E-01 -0.64889334E-01 -0.62386288E-02 -0.25160208E-01
       5 -0.76169341E-01 -0.82920705E-01 -0.67513634E-02 -0.25160208E-01
       6 -0.93702295E-01 -0.10819516E+00 -0.14492863E-01 -0.25160208E-01
       7 -0.11201971E+00 -0.12793545E+00 -0.15915747E-01 -0.25160208E-01
       8 -0.12462988E+00 -0.16027228E+00 -0.35642393E-01 -0.25160208E-01
       9 -0.14268235E+00 -0.18255687E+00 -0.39874520E-01 -0.25160208E-01
      10 -0.15844057E+00 -0.20246326E+00 -0.44022696E-01 -0.25160208E-01
      11 -0.17323777E+00 -0.21890349E+00 -0.45665719E-01 -0.25160208E-01
      12 -0.18556938E+00 -0.23558233E+00 -0.50012948E-01 -0.25160208E-01
      13 -0.20631011E+00 -0.25750828E+00 -0.51198170E-01 -0.25160208E-01
      14 -0.22224145E+00 -0.27781744E+00 -0.55575996E-01 -0.25160208E-01
      15 -0.24500729E+00 -0.30990081E+00 -0.64893512E-01 -0.25160208E-01
      16 -0.27964485E+00 -0.34481879E+00 -0.65173942E-01 -0.25160208E-01
      17 -0.29637619E+00 -0.36979910E+00 -0.73422913E-01 -0.25160208E-01
      18 -0.30257834E+00 -0.39783107E+00 -0.95252725E-01 -0.25160208E-01
      19 -0.32713185E+00 -0.42637956E+00 -0.99247704E-01 -0.25160208E-01
      20 -0.33933370E+00 -0.45353354E+00 -0.11419984E+00 -0.25160208E-01
      21 -0.35377862E+00 -0.48125769E+00 -0.12747907E+00 -0.25160208E-01
      22 -0.36620706E+00 -0.50515328E+00 -0.13894623E+00 -0.25160208E-01
      23 -0.38068916E+00 -0.53539870E+00 -0.15470953E+00 -0.25160208E-01
      24 -0.39428679E+00 -0.56648578E+00 -0.17219899E+00 -0.25160208E-01
      25 -0.40543719E+00 -0.59118120E+00 -0.18574401E+00 -0.25160208E-01
      26 -0.41306811E+00 -0.60900028E+00 -0.19593217E+00 -0.25160208E-01
      27 -0.42530621E+00 -0.62681531E+00 -0.20150910E+00 -0.25160208E-01
      28 -0.43557392E+00 -0.65994337E+00 -0.22436945E+00 -0.25160208E-01
      29 -0.44720002E+00 -0.69302095E+00 -0.24582092E+00 -0.25160208E-01
      30 -0.45628947E+00 -0.70536480E+00 -0.24907532E+00 -0.25160208E-01
      31 -0.46207068E+00 -0.71742197E+00 -0.25535130E+00 -0.25160208E-01
      32 -0.48955440E+00 -0.74952396E+00 -0.25996956E+00 -0.25160208E-01
      33 -0.50001351E+00 -0.76248869E+00 -0.26247518E+00 -0.25160208E-01
      34 -0.55873332E+00 -0.82784795E+00 -0.26911463E+00 -0.25160208E-01
      35 -0.57919327E+00 -0.87410969E+00 -0.29491642E+00 -0.25160208E-01
      36 -0.59937873E+00 -0.92056904E+00 -0.32119031E+00 -0.25160208E-01
      37 -0.66237372E+00 -0.98012191E+00 -0.31774819E+00 -0.25160208E-01
      38 -0.72603088E+00 -0.10397933E+01 -0.31376238E+00 -0.25160208E-01
      39 -0.74991267E+00 -0.10652400E+01 -0.31532737E+00 -0.25160208E-01
      40 -0.77265336E+00 -0.10902894E+01 -0.31763604E+00 -0.25160208E-01
      41 -0.79749470E+00 -0.11053905E+01 -0.30789580E+00 -0.25160208E-01
      42 -0.82463289E+00 -0.11231179E+01 -0.29848502E+00 -0.25160208E-01
      43 -0.84027986E+00 -0.11330684E+01 -0.29278850E+00 -0.25160208E-01
      44 -0.89289378E+00 -0.11624222E+01 -0.26952846E+00 -0.25160208E-01
      45 -0.94531937E+00 -0.11921990E+01 -0.24687965E+00 -0.25160208E-01
      46 -0.96780022E+00 -0.12047634E+01 -0.23696323E+00 -0.25160208E-01
      47 -0.99053268E+00 -0.12258637E+01 -0.23533103E+00 -0.25160208E-01
      48 -0.11044963E+01 -0.12783154E+01 -0.17381908E+00 -0.25160208E-01
      49 -0.12223148E+01 -0.13741789E+01 -0.15186407E+00 -0.25160208E-01
      50 -0.12425153E+01 -0.13945200E+01 -0.15200461E+00 -0.25160208E-01
      51 -0.12574164E+01 -0.14145560E+01 -0.15713960E+00 -0.25160208E-01
      52 -0.12941813E+01 -0.14455138E+01 -0.15133245E+00 -0.25160208E-01
      53 -0.13376378E+01 -0.15388879E+01 -0.20125013E+00 -0.25160208E-01
      54 -0.14037332E+01 -0.15957135E+01 -0.19198025E+00 -0.25160208E-01
      55 -0.15033884E+01 -0.16628173E+01 -0.15942894E+00 -0.25160208E-01
      56 -0.16133021E+01 -0.17831911E+01 -0.16988899E+00 -0.25160208E-01
      57 -0.17769842E+01 -0.19184218E+01 -0.14143766E+00 -0.25160208E-01
      58 -0.18694007E+01 -0.20461219E+01 -0.17672119E+00 -0.25160208E-01
      59 -0.20694529E+01 -0.21361768E+01 -0.66723961E-01 -0.25160208E-01
      60 -0.22947962E+01 -0.22263599E+01  0.68436271E-01 -0.25160208E-01
      61 -0.24670037E+01 -0.23174228E+01  0.14958086E+00 -0.25160208E-01
      62 -0.27072868E+01 -0.24083948E+01  0.29889204E+00 -0.25160208E-01
      63 -0.32203828E+01 -0.25301968E+01  0.69018601E+00 -0.25160208E-01
      64 -0.37192989E+01 -0.26519399E+01  0.10673591E+01 -0.25160208E-01
      65 -0.39054132E+01 -0.33078849E+01  0.59752835E+00 -0.25160208E-01
      66 -0.40069569E+01 -0.36219047E+01  0.38505228E+00 -0.25160208E-01
      67 -0.41779406E+01 -0.40958024E+01  0.82138217E-01 -0.25160208E-01
      68 -0.44250721E+01 -0.42666824E+01  0.15838964E+00 -0.25160208E-01
      69 -0.45771286E+01 -0.45046122E+01  0.72516436E-01 -0.25160208E-01
      70 -0.47443747E+01 -0.46793697E+01  0.65005087E-01 -0.25160208E-01
      71 -0.49200494E+01 -0.48716685E+01  0.48380884E-01 -0.25160208E-01
      72 -0.49954018E+01 -0.49423111E+01  0.53090787E-01 -0.25160208E-01
      73 -0.50793417E+01 -0.50132180E+01  0.66123650E-01 -0.25160208E-01
      74 -0.51374287E+01 -0.50487210E+01  0.88707649E-01 -0.25160208E-01
      75 -0.51501888E+01 -0.50797490E+01  0.70439816E-01 -0.25160208E-01
      76 -0.51609904E+01 -0.51013594E+01  0.59630966E-01 -0.25160208E-01
      77 -0.52140644E+01 -0.51512114E+01  0.62852984E-01 -0.25160208E-01
      78 -0.52308013E+01 -0.51737638E+01  0.57037473E-01 -0.25160208E-01
      79 -0.52451100E+01 -0.51871239E+01  0.57986082E-01 -0.25160208E-01
      80 -0.52631408E+01 -0.52033995E+01  0.59741282E-01 -0.25160208E-01
      81 -0.52687978E+01 -0.52106434E+01  0.58154461E-01 -0.25160208E-01
      82 -0.52722970E+01 -0.52150922E+01  0.57204822E-01 -0.25160208E-01
      83 -0.53085002E+01 -0.52540220E+01  0.54478277E-01 -0.25160208E-01
      84 -0.53225656E+01 -0.52823063E+01  0.40259348E-01 -0.25160208E-01
      85 -0.53395280E+01 -0.52978946E+01  0.41633378E-01 -0.25160208E-01
      86 -0.53588889E+01 -0.53217061E+01  0.37182848E-01 -0.25160208E-01
      87 -0.53728597E+01 -0.53416651E+01  0.31194562E-01 -0.25160208E-01
      88 -0.53884567E+01 -0.53501607E+01  0.38296008E-01 -0.25160208E-01
      89 -0.53911538E+01 -0.53560850E+01  0.35068746E-01 -0.25160208E-01
      90 -0.53925331E+01 -0.53573158E+01  0.35217239E-01 -0.25160208E-01
      91 -0.53946160E+01 -0.53589044E+01  0.35711629E-01 -0.25160208E-01
      92 -0.53961489E+01 -0.53601342E+01  0.36014669E-01 -0.25160208E-01
      93 -0.53976271E+01 -0.53610023E+01  0.36624754E-01 -0.25160208E-01
      94 -0.54052218E+01 -0.53739505E+01  0.31271312E-01 -0.25160208E-01
      95 -0.54198248E+01 -0.54057836E+01  0.14041215E-01 -0.25160208E-01
      96 -0.54289957E+01 -0.54273719E+01  0.16238300E-02 -0.25160208E-01
      97 -0.54345891E+01 -0.54362327E+01 -0.16436325E-02 -0.25160208E-01
      98 -0.54519878E+01 -0.54526489E+01 -0.66110538E-03 -0.25160208E-01
      99 -0.54692960E+01 -0.54706780E+01 -0.13820038E-02 -0.25160208E-01
     100 -0.54750124E+01 -0.54805184E+01 -0.55059809E-02 -0.25160208E-01
     101 -0.54768962E+01 -0.54819926E+01 -0.50964458E-02 -0.25160208E-01
     102 -0.54856722E+01 -0.54963767E+01 -0.10704484E-01 -0.25160208E-01
     103 -0.54944526E+01 -0.55113388E+01 -0.16886173E-01 -0.25160208E-01
     104 -0.54974619E+01 -0.55133790E+01 -0.15917091E-01 -0.25160208E-01
     105 -0.54995143E+01 -0.55158379E+01 -0.16323629E-01 -0.25160208E-01
     106 -0.55165640E+01 -0.55330633E+01 -0.16499295E-01 -0.25160208E-01
     107 -0.55358707E+01 -0.55565884E+01 -0.20717704E-01 -0.25160208E-01
     108 -0.55406604E+01 -0.55652439E+01 -0.24583468E-01 -0.25160208E-01
     109 -0.55443280E+01 -0.55697283E+01 -0.25400233E-01 -0.25160208E-01
     110 -0.55480492E+01 -0.55749667E+01 -0.26917540E-01 -0.25160208E-01
     111 -0.55508401E+01 -0.55787023E+01 -0.27862262E-01 -0.25160208E-01
     112 -0.55543136E+01 -0.55820074E+01 -0.27693722E-01 -0.25160208E-01
     113 -0.55654368E+01 -0.55931240E+01 -0.27687147E-01 -0.25160208E-01
     114 -0.55748973E+01 -0.56034985E+01 -0.28601219E-01 -0.25160208E-01
     115 -0.55766454E+01 -0.56064599E+01 -0.29814532E-01 -0.25160208E-01
     116 -0.55805818E+01 -0.56109144E+01 -0.30332643E-01 -0.25160208E-01
     117 -0.55841195E+01 -0.56148402E+01 -0.30720755E-01 -0.25160208E-01
     118 -0.55875016E+01 -0.56184317E+01 -0.30930014E-01 -0.25160208E-01
     119 -0.55908049E+01 -0.56222448E+01 -0.31439908E-01 -0.25160208E-01
     120 -0.55936681E+01 -0.56253431E+01 -0.31675026E-01 -0.25160208E-01
     121 -0.55956126E+01 -0.56278130E+01 -0.32200404E-01 -0.25160208E-01
     122 -0.55977800E+01 -0.56302278E+01 -0.32447824E-01 -0.25160208E-01
     123 -0.55999781E+01 -0.56330375E+01 -0.33059454E-01 -0.25160208E-01
     124 -0.56029029E+01 -0.56368639E+01 -0.33960968E-01 -0.25160208E-01
     125 -0.56055713E+01 -0.56399701E+01 -0.34398776E-01 -0.25160208E-01
     126 -0.56091577E+01 -0.56440030E+01 -0.34845327E-01 -0.25160208E-01
     127 -0.56116532E+01 -0.56470069E+01 -0.35353760E-01 -0.25160208E-01
     128 -0.56155244E+01 -0.56498628E+01 -0.34338373E-01 -0.25160208E-01
     129 -0.56172112E+01 -0.56512832E+01 -0.34072027E-01 -0.25160208E-01
     130 -0.56196738E+01 -0.56541995E+01 -0.34525706E-01 -0.25160208E-01
     131 -0.56222388E+01 -0.56574129E+01 -0.35174072E-01 -0.25160208E-01
     132 -0.56253497E+01 -0.56613012E+01 -0.35951495E-01 -0.25160208E-01
# k =  0.00000000E+00  0.00000000E+00  0.12500000E+00 spin= 1
 # n1 <i|Sigma_ch|i> (eV), partial sum
 #      nbands   ch(vbm)          ch(cbm)           diff        converged
       1 -0.14054346E-01 -0.15544225E-01 -0.14898788E-02 -0.11010938E+00
       2 -0.29931194E-01 -0.30296707E-01 -0.36551342E-03 -0.11010938E+00
       3 -0.45586286E-01 -0.46763299E-01 -0.11770134E-02 -0.11010938E+00
       4 -0.63689090E-01 -0.64798572E-01 -0.11094820E-02 -0.11010938E+00
       5 -0.82096432E-01 -0.83158230E-01 -0.10617981E-02 -0.11010938E+00
       6 -0.10006150E+00 -0.10432784E+00 -0.42663336E-02 -0.11010938E+00
       7 -0.11984262E+00 -0.12584617E+00 -0.60035553E-02 -0.11010938E+00
       8 -0.13576451E+00 -0.15294730E+00 -0.17182788E-01 -0.11010938E+00
       9 -0.15472621E+00 -0.17642480E+00 -0.21698592E-01 -0.11010938E+00
      10 -0.17209184E+00 -0.20075237E+00 -0.28660530E-01 -0.11010938E+00
      11 -0.18797064E+00 -0.22012547E+00 -0.32154821E-01 -0.11010938E+00
      12 -0.20715713E+00 -0.23868552E+00 -0.31528394E-01 -0.11010938E+00
      13 -0.22119279E+00 -0.26289430E+00 -0.41701509E-01 -0.11010938E+00
      14 -0.24666537E+00 -0.28419946E+00 -0.37534086E-01 -0.11010938E+00
      15 -0.27305731E+00 -0.31640861E+00 -0.43351308E-01 -0.11010938E+00
      16 -0.29744924E+00 -0.34823557E+00 -0.50786326E-01 -0.11010938E+00
      17 -0.30606824E+00 -0.37557208E+00 -0.69503843E-01 -0.11010938E+00
      18 -0.33170542E+00 -0.40599644E+00 -0.74291026E-01 -0.11010938E+00
      19 -0.34117143E+00 -0.43636816E+00 -0.95196726E-01 -0.11010938E+00
      20 -0.35725824E+00 -0.46298554E+00 -0.10572731E+00 -0.11010938E+00
      21 -0.36933625E+00 -0.49003914E+00 -0.12070289E+00 -0.11010938E+00
      22 -0.38568618E+00 -0.51744505E+00 -0.13175886E+00 -0.11010938E+00
      23 -0.39907948E+00 -0.55212474E+00 -0.15304526E+00 -0.11010938E+00
      24 -0.41284727E+00 -0.58322937E+00 -0.17038209E+00 -0.11010938E+00
      25 -0.42533190E+00 -0.60828227E+00 -0.18295037E+00 -0.11010938E+00
      26 -0.43672346E+00 -0.62704242E+00 -0.19031896E+00 -0.11010938E+00
      27 -0.44613715E+00 -0.64515102E+00 -0.19901386E+00 -0.11010938E+00
      28 -0.45695106E+00 -0.67934237E+00 -0.22239131E+00 -0.11010938E+00
      29 -0.46693839E+00 -0.71356120E+00 -0.24662281E+00 -0.11010938E+00
      30 -0.47375689E+00 -0.72615366E+00 -0.25239677E+00 -0.11010938E+00
      31 -0.48386758E+00 -0.73846704E+00 -0.25459946E+00 -0.11010938E+00
      32 -0.51376852E+00 -0.76870967E+00 -0.25494114E+00 -0.11010938E+00
      33 -0.52375884E+00 -0.78167225E+00 -0.25791341E+00 -0.11010938E+00
      34 -0.58639864E+00 -0.84045879E+00 -0.25406015E+00 -0.11010938E+00
      35 -0.60809594E+00 -0.88240456E+00 -0.27430862E+00 -0.11010938E+00
      36 -0.62976459E+00 -0.92438413E+00 -0.29461954E+00 -0.11010938E+00
      37 -0.69568465E+00 -0.97824166E+00 -0.28255701E+00 -0.11010938E+00
      38 -0.76032237E+00 -0.10317329E+01 -0.27141053E+00 -0.11010938E+00
      39 -0.78167027E+00 -0.10572417E+01 -0.27557146E+00 -0.11010938E+00
      40 -0.80380308E+00 -0.10824635E+01 -0.27866037E+00 -0.11010938E+00
      41 -0.82516370E+00 -0.10960829E+01 -0.27091924E+00 -0.11010938E+00
      42 -0.84777092E+00 -0.11119562E+01 -0.26418524E+00 -0.11010938E+00
      43 -0.86485395E+00 -0.11217128E+01 -0.25685882E+00 -0.11010938E+00
      44 -0.91693276E+00 -0.11500828E+01 -0.23315008E+00 -0.11010938E+00
      45 -0.96910802E+00 -0.11799086E+01 -0.21080063E+00 -0.11010938E+00
      46 -0.99241437E+00 -0.11947525E+01 -0.20233812E+00 -0.11010938E+00
      47 -0.10165531E+01 -0.12147588E+01 -0.19820578E+00 -0.11010938E+00
      48 -0.11080417E+01 -0.12628788E+01 -0.15483708E+00 -0.11010938E+00
      49 -0.12386303E+01 -0.13449977E+01 -0.10636733E+00 -0.11010938E+00
      50 -0.12542148E+01 -0.13645934E+01 -0.11037868E+00 -0.11010938E+00
      51 -0.12746205E+01 -0.13836777E+01 -0.10905720E+00 -0.11010938E+00
      52 -0.13132977E+01 -0.14127106E+01 -0.99412903E-01 -0.11010938E+00
      53 -0.13658204E+01 -0.14876440E+01 -0.12182362E+00 -0.11010938E+00
      54 -0.14606658E+01 -0.15390462E+01 -0.78380395E-01 -0.11010938E+00
      55 -0.15429289E+01 -0.15994014E+01 -0.56472585E-01 -0.11010938E+00
      56 -0.16341145E+01 -0.16968822E+01 -0.62767736E-01 -0.11010938E+00
      57 -0.18037836E+01 -0.18290805E+01 -0.25296925E-01 -0.11010938E+00
      58 -0.19368768E+01 -0.19978127E+01 -0.60935921E-01 -0.11010938E+00
      59 -0.22134220E+01 -0.20976813E+01  0.11574064E+00 -0.11010938E+00
      60 -0.24472043E+01 -0.21975368E+01  0.24966749E+00 -0.11010938E+00
      61 -0.27524903E+01 -0.22940342E+01  0.45845604E+00 -0.11010938E+00
      62 -0.29368343E+01 -0.23905447E+01  0.54628967E+00 -0.11010938E+00
      63 -0.35142767E+01 -0.24982303E+01  0.10160464E+01 -0.11010938E+00
      64 -0.39181033E+01 -0.26059236E+01  0.13121797E+01 -0.11010938E+00
      65 -0.39977232E+01 -0.31469523E+01  0.85077093E+00 -0.11010938E+00
      66 -0.41549141E+01 -0.34285769E+01  0.72633719E+00 -0.11010938E+00
      67 -0.42611301E+01 -0.39504338E+01  0.31069635E+00 -0.11010938E+00
      68 -0.43980102E+01 -0.41400884E+01  0.25792189E+00 -0.11010938E+00
      69 -0.45759866E+01 -0.44258217E+01  0.15016495E+00 -0.11010938E+00
      70 -0.47819560E+01 -0.46171327E+01  0.16482322E+00 -0.11010938E+00
      71 -0.49169325E+01 -0.48298596E+01  0.87072924E-01 -0.11010938E+00
      72 -0.50076279E+01 -0.49176814E+01  0.89946432E-01 -0.11010938E+00
      73 -0.51160224E+01 -0.50050455E+01  0.11097684E+00 -0.11010938E+00
      74 -0.51493733E+01 -0.50481696E+01  0.10120369E+00 -0.11010938E+00
      75 -0.51925499E+01 -0.50850704E+01  0.10747956E+00 -0.11010938E+00
      76 -0.52025701E+01 -0.51102064E+01  0.92363752E-01 -0.11010938E+00
      77 -0.52321701E+01 -0.51689394E+01  0.63230735E-01 -0.11010938E+00
      78 -0.52742395E+01 -0.51951241E+01  0.79115414E-01 -0.11010938E+00
      79 -0.52868979E+01 -0.52100186E+01  0.76879317E-01 -0.11010938E+00
      80 -0.53024982E+01 -0.52281221E+01  0.74376065E-01 -0.11010938E+00
      81 -0.53122245E+01 -0.52357906E+01  0.76433904E-01 -0.11010938E+00
      82 -0.53150040E+01 -0.52411530E+01  0.73850941E-01 -0.11010938E+00
      83 -0.53370628E+01 -0.52862461E+01  0.50816706E-01 -0.11010938E+00
      84 -0.53518423E+01 -0.53187381E+01  0.33104162E-01 -0.11010938E+00
      85 -0.53675977E+01 -0.53367705E+01  0.30827196E-01 -0.11010938E+00
      86 -0.54084819E+01 -0.53651871E+01  0.43294738E-01 -0.11010938E+00
      87 -0.54183213E+01 -0.53893885E+01  0.28932780E-01 -0.11010938E+00
      88 -0.54257781E+01 -0.53988648E+01  0.26913358E-01 -0.11010938E+00
      89 -0.54416756E+01 -0.54064581E+01  0.35217510E-01 -0.11010938E+00
      90 -0.54440925E+01 -0.54077851E+01  0.36307364E-01 -0.11010938E+00
      91 -0.54464117E+01 -0.54094973E+01  0.36914391E-01 -0.11010938E+00
      92 -0.54478194E+01 -0.54109043E+01  0.36915008E-01 -0.11010938E+00
      93 -0.54488066E+01 -0.54118556E+01  0.36951035E-01 -0.11010938E+00
      94 -0.54560606E+01 -0.54263121E+01  0.29748507E-01 -0.11010938E+00
      95 -0.54704026E+01 -0.54620009E+01  0.84017626E-02 -0.11010938E+00
      96 -0.54802453E+01 -0.54846725E+01 -0.44272317E-02 -0.11010938E+00
      97 -0.54862145E+01 -0.54944363E+01 -0.82218089E-02 -0.11010938E+00
      98 -0.55041950E+01 -0.55131318E+01 -0.89368143E-02 -0.11010938E+00
      99 -0.55241086E+01 -0.55333012E+01 -0.91926501E-02 -0.11010938E+00
     100 -0.55272939E+01 -0.55422960E+01 -0.15002057E-01 -0.11010938E+00
     101 -0.55295859E+01 -0.55437596E+01 -0.14173724E-01 -0.11010938E+00
     102 -0.55382901E+01 -0.55597615E+01 -0.21471391E-01 -0.11010938E+00
     103 -0.55473942E+01 -0.55771960E+01 -0.29801720E-01 -0.11010938E+00
     104 -0.55484634E+01 -0.55791193E+01 -0.30655889E-01 -0.11010938E+00
     105 -0.55517915E+01 -0.55817159E+01 -0.29924398E-01 -0.11010938E+00
     106 -0.55689497E+01 -0.56010559E+01 -0.32106209E-01 -0.11010938E+00
     107 -0.55905905E+01 -0.56276617E+01 -0.37071220E-01 -0.11010938E+00
     108 -0.55959752E+01 -0.56373627E+01 -0.41387541E-01 -0.11010938E+00
     109 -0.56001807E+01 -0.56433768E+01 -0.43196091E-01 -0.11010938E+00
     110 -0.56043181E+01 -0.56492398E+01 -0.44921661E-01 -0.11010938E+00
     111 -0.56071640E+01 -0.56542436E+01 -0.47079529E-01 -0.11010938E+00
     112 -0.56105262E+01 -0.56582769E+01 -0.47750658E-01 -0.11010938E+00
     113 -0.56219756E+01 -0.56713660E+01 -0.49390407E-01 -0.11010938E+00
     114 -0.56323392E+01 -0.56835481E+01 -0.51208924E-01 -0.11010938E+00
     115 -0.56353961E+01 -0.56867449E+01 -0.51348723E-01 -0.11010938E+00
     116 -0.56390381E+01 -0.56915546E+01 -0.52516493E-01 -0.11010938E+00
     117 -0.56423832E+01 -0.56955337E+01 -0.53150444E-01 -0.11010938E+00
     118 -0.56459515E+01 -0.56999122E+01 -0.53960759E-01 -0.11010938E+00
     119 -0.56502048E+01 -0.57047353E+01 -0.54530521E-01 -0.11010938E+00
     120 -0.56528165E+01 -0.57080249E+01 -0.55208355E-01 -0.11010938E+00
     121 -0.56555184E+01 -0.57105837E+01 -0.55065353E-01 -0.11010938E+00
     122 -0.56575493E+01 -0.57130040E+01 -0.55454702E-01 -0.11010938E+00
     123 -0.56599090E+01 -0.57154328E+01 -0.55523782E-01 -0.11010938E+00
     124 -0.56629418E+01 -0.57186198E+01 -0.55678060E-01 -0.11010938E+00
     125 -0.56660875E+01 -0.57218400E+01 -0.55752487E-01 -0.11010938E+00
     126 -0.56699601E+01 -0.57255760E+01 -0.55615830E-01 -0.11010938E+00
     127 -0.56732401E+01 -0.57282445E+01 -0.55004450E-01 -0.11010938E+00
     128 -0.56745319E+01 -0.57308281E+01 -0.56296185E-01 -0.11010938E+00
     129 -0.56763675E+01 -0.57320539E+01 -0.55686378E-01 -0.11010938E+00
     130 -0.56785527E+01 -0.57348937E+01 -0.56340981E-01 -0.11010938E+00
     131 -0.56812616E+01 -0.57380908E+01 -0.56829245E-01 -0.11010938E+00
     132 -0.56842550E+01 -0.57418376E+01 -0.57582558E-01 -0.11010938E+00
# k =  0.00000000E+00  0.00000000E+00  0.25000000E+00 spin= 1
 # n1 <i|Sigma_ch|i> (eV), partial sum
 #      nbands   ch(vbm)          ch(cbm)           diff        converged
       1 -0.16387690E-01 -0.85714092E-02  0.78162804E-02  0.77565906E-01
       2 -0.33810714E-01 -0.17871641E-01  0.15939073E-01  0.77565906E-01
