# k =   0.000000   0.000000   0.000000 spin = 1
# <ib|Sigma_CH[1..Nb]|ib> (eV), partial and symmetrized sum with up to Nb "inner" bands
# Reporting only VBM and CBM, use 'full_ch_conv_log 1' keyword for full report.
# 1/N extrap for CH(vbm) CH(cbm) diff =  -8.56437374E+00  -8.18783629E+00   3.76537449E-01
# Error est. for CH(vbm) CH(cbm) diff =   6.38061991E-01   5.66118544E-01  -7.19434467E-02
#    Nb          CH(vbm)          CH(cbm)             diff
      1  -7.23046929E-01  -7.56884053E-01  -3.38371244E-02
      2  -2.30643977E+00  -1.40210599E+00   9.04333783E-01
      3  -3.67497661E+00  -2.07950163E+00   1.59547498E+00
      4  -5.14819270E+00  -2.63790043E+00   2.51029227E+00
      5  -5.34259216E+00  -3.65927546E+00   1.68331670E+00
      6  -5.59727207E+00  -4.54385748E+00   1.05341459E+00
      7  -5.90561616E+00  -5.53061005E+00   3.75006107E-01
      8  -6.18982599E+00  -5.87087210E+00   3.18953890E-01
      9  -6.45685232E+00  -6.12233024E+00   3.34522087E-01
     10  -6.65215927E+00  -6.30616587E+00   3.45993401E-01
     11  -6.81446950E+00  -6.45404370E+00   3.60425809E-01
     12  -6.93206557E+00  -6.61955332E+00   3.12512250E-01
     13  -7.03511479E+00  -6.74598934E+00   2.89125446E-01
     14  -7.16521958E+00  -6.86771959E+00   2.97499992E-01
     15  -7.23002507E+00  -6.94886164E+00   2.81163435E-01
     16  -7.29616784E+00  -7.02617555E+00   2.69992290E-01
     17  -7.36851431E+00  -7.10214005E+00   2.66374262E-01
     18  -7.45118756E+00  -7.16484056E+00   2.86347005E-01
     19  -7.51366732E+00  -7.22668840E+00   2.86978915E-01
     20  -7.54881029E+00  -7.27215398E+00   2.76656311E-01
     21  -7.59690248E+00  -7.31459410E+00   2.82308387E-01
     22  -7.64327472E+00  -7.35660702E+00   2.86667709E-01
     23  -7.68672828E+00  -7.39833435E+00   2.88393927E-01
     24  -7.72337732E+00  -7.43469206E+00   2.88685263E-01
     25  -7.75731682E+00  -7.46374008E+00   2.93576733E-01
     26  -7.78376076E+00  -7.49179976E+00   2.91961010E-01
     27  -7.81696932E+00  -7.51550767E+00   3.01461651E-01
     28  -7.83852400E+00  -7.53994408E+00   2.98579918E-01
     29  -7.86030534E+00  -7.56315376E+00   2.97151577E-01
     30  -7.88209564E+00  -7.58472721E+00   2.97368431E-01
     31  -7.90589932E+00  -7.60373535E+00   3.02163971E-01
     32  -7.92631175E+00  -7.62171775E+00   3.04594002E-01
# k =   0.000000   0.000000   0.200000 spin = 1
# <ib|Sigma_CH[1..Nb]|ib> (eV), partial and symmetrized sum with up to Nb "inner" bands
# Reporting only VBM and CBM, use 'full_ch_conv_log 1' keyword for full report.
# 1/N extrap for CH(vbm) CH(cbm) diff =  -8.39095516E+00  -8.30707937E+00   8.38757847E-02
# Error est. for CH(vbm) CH(cbm) diff =   6.00440235E-01   5.86684466E-01  -1.37557695E-02
#    Nb          CH(vbm)          CH(cbm)             diff
      1  -7.76089055E-01  -8.67885169E-01  -9.17961146E-02
      2  -1.94399132E+00  -1.75016060E+00   1.93830728E-01
      3  -3.50139856E+00  -2.30230236E+00   1.19909620E+00
      4  -5.06982954E+00  -2.68289537E+00   2.38693417E+00
      5  -5.29877959E+00  -4.39029715E+00   9.08482445E-01
      6  -5.60069918E+00  -4.80750033E+00   7.93198848E-01
      7  -5.91284450E+00  -5.48084744E+00   4.31997058E-01
      8  -6.17235511E+00  -5.89516908E+00   2.77186038E-01
      9  -6.41135334E+00  -6.12134562E+00   2.90007717E-01
     10  -6.59728247E+00  -6.33771340E+00   2.59569072E-01
     11  -6.73812975E+00  -6.56346532E+00   1.74664432E-01
     12  -6.85087495E+00  -6.69728467E+00   1.53590278E-01
     13  -6.95311664E+00  -6.82041118E+00   1.32705454E-01
     14  -7.06777812E+00  -6.94901166E+00   1.18766457E-01
     15  -7.13171756E+00  -7.03217590E+00   9.95416632E-02
     16  -7.19548756E+00  -7.10790098E+00   8.75865807E-02
     17  -7.26486284E+00  -7.18187433E+00   8.29885170E-02
     18  -7.34066568E+00  -7.25005606E+00   9.06096204E-02
     19  -7.39973834E+00  -7.31488851E+00   8.48498358E-02
     20  -7.43539251E+00  -7.35936428E+00   7.60282273E-02
     21  -7.48098998E+00  -7.40679632E+00   7.41936560E-02
     22  -7.52288796E+00  -7.44915829E+00   7.37296620E-02
     23  -7.56471151E+00  -7.49257342E+00   7.21380955E-02
     24  -7.59907159E+00  -7.52754725E+00   7.15243405E-02
     25  -7.62948191E+00  -7.55724717E+00   7.22347371E-02
     26  -7.65611584E+00  -7.58758422E+00   6.85316178E-02
     27  -7.68670198E+00  -7.61373199E+00   7.29699912E-02
     28  -7.70757226E+00  -7.63775390E+00   6.98183664E-02
     29  -7.72840041E+00  -7.65970341E+00   6.86970046E-02
     30  -7.74933808E+00  -7.68082713E+00   6.85109501E-02
     31  -7.77145160E+00  -7.70130054E+00   7.01510600E-02
     32  -7.79051492E+00  -7.72039491E+00   7.01200152E-02
# k =   0.000000   0.000000   0.400000 spin = 1
# <ib|Sigma_CH[1..Nb]|ib> (eV), partial and symmetrized sum with up to Nb "inner" bands
# Reporting only VBM and CBM, use 'full_ch_conv_log 1' keyword for full report.
# 1/N extrap for CH(vbm) CH(cbm) diff =  -8.31281873E+00  -8.26254371E+00   5.02750204E-02
# Error est. for CH(vbm) CH(cbm) diff =   5.76315780E-01   5.78830615E-01   2.51483513E-03
#    Nb          CH(vbm)          CH(cbm)             diff
      1  -8.23011848E-01  -9.14023029E-01  -9.10111805E-02
      2  -1.79720208E+00  -1.80077473E+00  -3.57264545E-03
      3  -3.36042460E+00  -2.41904044E+00   9.41384162E-01
      4  -5.11202770E+00  -2.69677902E+00   2.41524867E+00
      5  -5.33314077E+00  -4.55663001E+00   7.76510765E-01
      6  -5.65340691E+00  -5.01599629E+00   6.37410622E-01
      7  -5.96517780E+00  -5.62258502E+00   3.42592788E-01
      8  -6.21048856E+00  -5.93850714E+00   2.71981425E-01
      9  -6.42161604E+00  -6.14380268E+00   2.77813362E-01
     10  -6.60234693E+00  -6.34822330E+00   2.54123634E-01
     11  -6.72725301E+00  -6.55204135E+00   1.75211654E-01
     12  -6.83787712E+00  -6.68604944E+00   1.51827682E-01
     13  -6.93523599E+00  -6.81203159E+00   1.23204400E-01
     14  -7.03805163E+00  -6.93066601E+00   1.07385617E-01
     15  -7.10298980E+00  -7.01273299E+00   9.02568074E-02
     16  -7.16564589E+00  -7.08747977E+00   7.81661266E-02
     17  -7.23121019E+00  -7.15944614E+00   7.17640510E-02
     18  -7.30290020E+00  -7.22523499E+00   7.76652097E-02
     19  -7.35940476E+00  -7.28819725E+00   7.12075047E-02
     20  -7.39584959E+00  -7.33059703E+00   6.52525588E-02
     21  -7.43868713E+00  -7.37920854E+00   5.94785892E-02
     22  -7.48081132E+00  -7.42087697E+00   5.99343426E-02
     23  -7.51946892E+00  -7.46196455E+00   5.75043654E-02
     24  -7.55270139E+00  -7.49525735E+00   5.74440387E-02
     25  -7.58242441E+00  -7.52497644E+00   5.74479724E-02
     26  -7.60698729E+00  -7.55408291E+00   5.29043795E-02
     27  -7.63651377E+00  -7.57992298E+00   5.65907891E-02
     28  -7.65712500E+00  -7.60281402E+00   5.43109803E-02
     29  -7.67688408E+00  -7.62383407E+00   5.30500109E-02
     30  -7.69717267E+00  -7.64365900E+00   5.35136672E-02
     31  -7.71832348E+00  -7.66426994E+00   5.40535359E-02
     32  -7.73650295E+00  -7.68371310E+00   5.27898556E-02
# k =   0.000000   0.200000   0.200000 spin = 1
# <ib|Sigma_CH[1..Nb]|ib> (eV), partial and symmetrized sum with up to Nb "inner" bands
# Reporting only VBM and CBM, use 'full_ch_conv_log 1' keyword for full report.
# 1/N extrap for CH(vbm) CH(cbm) diff =  -8.12475322E+00  -7.70619563E+00   4.18557591E-01
# Error est. for CH(vbm) CH(cbm) diff =   5.39917432E-01   4.99519062E-01  -4.03983699E-02
#    Nb          CH(vbm)          CH(cbm)             diff
      1  -8.33471557E-01  -7.20579659E-01   1.12891899E-01
      2  -1.94240862E+00  -1.32970102E+00   6.12707601E-01
      3  -3.50371971E+00  -2.01219145E+00   1.49152826E+00
      4  -4.98414695E+00  -2.42942184E+00   2.55472511E+00
      5  -5.25210648E+00  -4.28982796E+00   9.62278515E-01
      6  -5.58994355E+00  -4.87995744E+00   7.09986111E-01
      7  -5.88397056E+00  -5.33523392E+00   5.48736630E-01
      8  -6.10303129E+00  -5.62212999E+00   4.80901301E-01
      9  -6.33124014E+00  -5.82133370E+00   5.09906437E-01
     10  -6.49112185E+00  -5.99691626E+00   4.94205593E-01
     11  -6.61969078E+00  -6.18639849E+00   4.33292286E-01
     12  -6.72485404E+00  -6.31662957E+00   4.08224462E-01
     13  -6.82100604E+00  -6.42736340E+00   3.93642648E-01
     14  -6.92259643E+00  -6.52959675E+00   3.92999680E-01
     15  -6.98474601E+00  -6.60658706E+00   3.78158948E-01
     16  -7.04376664E+00  -6.67509626E+00   3.68670375E-01
     17  -7.10782002E+00  -6.74029754E+00   3.67522474E-01
     18  -7.17426414E+00  -6.79593644E+00   3.78327695E-01
     19  -7.22837850E+00  -6.85021934E+00   3.78159161E-01
     20  -7.26392259E+00  -6.89399623E+00   3.69926364E-01
     21  -7.30390155E+00  -6.93253431E+00   3.71367239E-01
     22  -7.34256068E+00  -6.96978798E+00   3.72772702E-01
     23  -7.37979523E+00  -7.00605196E+00   3.73743274E-01
     24  -7.41127589E+00  -7.03877723E+00   3.72498654E-01
     25  -7.43977706E+00  -7.06545569E+00   3.74321370E-01
     26  -7.46330336E+00  -7.09057667E+00   3.72726685E-01
     27  -7.49017558E+00  -7.11293695E+00   3.77238636E-01
     28  -7.50990245E+00  -7.13448206E+00   3.75420395E-01
     29  -7.52898226E+00  -7.15500218E+00   3.73980079E-01
     30  -7.54833598E+00  -7.17374211E+00   3.74593866E-01
     31  -7.56794606E+00  -7.19074279E+00   3.77203262E-01
     32  -7.58483578E+00  -7.20667656E+00   3.78159221E-01
# k =   0.000000   0.200000   0.400000 spin = 1
# <ib|Sigma_CH[1..Nb]|ib> (eV), partial and symmetrized sum with up to Nb "inner" bands
# Reporting only VBM and CBM, use 'full_ch_conv_log 1' keyword for full report.
# 1/N extrap for CH(vbm) CH(cbm) diff =  -8.04987730E+00  -7.67037010E+00   3.79507198E-01
# Error est. for CH(vbm) CH(cbm) diff =   5.19868186E-01   5.10532273E-01  -9.33591337E-03
#    Nb          CH(vbm)          CH(cbm)             diff
      1  -8.82189107E-01  -6.86261002E-01   1.95928105E-01
      2  -1.83852924E+00  -1.27810254E+00   5.60426702E-01
      3  -2.99821477E+00  -1.89981485E+00   1.09839992E+00
      4  -5.02051937E+00  -2.35519201E+00   2.66532737E+00
      5  -5.29207102E+00  -4.14056498E+00   1.15150604E+00
      6  -5.61599349E+00  -4.75231607E+00   8.63677419E-01
      7  -5.90425559E+00  -5.20318539E+00   7.01070195E-01
      8  -6.11884862E+00  -5.52150789E+00   5.97340728E-01
      9  -6.32259381E+00  -5.73867563E+00   5.83918173E-01
     10  -6.48486141E+00  -5.95053890E+00   5.34322513E-01
     11  -6.59932036E+00  -6.11783896E+00   4.81481405E-01
     12  -6.70401360E+00  -6.24892807E+00   4.55085521E-01
     13  -6.79525622E+00  -6.36612399E+00   4.29132226E-01
     14  -6.88859104E+00  -6.46491973E+00   4.23671313E-01
     15  -6.95084129E+00  -6.55103986E+00   3.99801424E-01
     16  -7.00843379E+00  -6.62366506E+00   3.84768726E-01
     17  -7.07003165E+00  -6.68589027E+00   3.84141385E-01
     18  -7.13357645E+00  -6.74254223E+00   3.91034225E-01
     19  -7.18547017E+00  -6.79591218E+00   3.89557985E-01
     20  -7.22102983E+00  -6.84222590E+00   3.78803933E-01
     21  -7.26041699E+00  -6.88371112E+00   3.76705871E-01
     22  -7.29745985E+00  -6.92156772E+00   3.75892137E-01
     23  -7.33269866E+00  -6.95613789E+00   3.76560776E-01
     24  -7.36318082E+00  -6.98831194E+00   3.74868887E-01
     25  -7.39016627E+00  -7.01561877E+00   3.74547503E-01
     26  -7.41283846E+00  -7.04082919E+00   3.72009269E-01
     27  -7.43879604E+00  -7.06520947E+00   3.73586568E-01
     28  -7.45807951E+00  -7.08716297E+00   3.70916542E-01
     29  -7.47622965E+00  -7.10702415E+00   3.69205501E-01
     30  -7.49493543E+00  -7.12563471E+00   3.69300725E-01
     31  -7.51372769E+00  -7.14301134E+00   3.70716343E-01
     32  -7.53000912E+00  -7.15983783E+00   3.70171285E-01
# k =   0.000000   0.200000   0.600000 spin = 1
# <ib|Sigma_CH[1..Nb]|ib> (eV), partial and symmetrized sum with up to Nb "inner" bands
# Reporting only VBM and CBM, use 'full_ch_conv_log 1' keyword for full report.
# 1/N extrap for CH(vbm) CH(cbm) diff =  -8.14625643E+00  -7.72217223E+00   4.24084206E-01
# Error est. for CH(vbm) CH(cbm) diff =   5.40317040E-01   5.20488016E-01  -1.98290238E-02
#    Nb          CH(vbm)          CH(cbm)             diff
      1  -8.68052400E-01  -7.02301743E-01   1.65750657E-01
      2  -1.76957367E+00  -1.28738048E+00   4.82193192E-01
      3  -2.87157775E+00  -1.88363821E+00   9.87939542E-01
      4  -5.05625966E+00  -2.33099753E+00   2.72526212E+00
      5  -5.31193787E+00  -4.09043121E+00   1.22150667E+00
      6  -5.62667884E+00  -4.61902761E+00   1.00765123E+00
      7  -5.92884812E+00  -5.18402567E+00   7.44822450E-01
      8  -6.16380558E+00  -5.52449356E+00   6.39312026E-01
      9  -6.36579360E+00  -5.75137726E+00   6.14416346E-01
     10  -6.53494341E+00  -5.96992041E+00   5.65022995E-01
     11  -6.64780869E+00  -6.13150020E+00   5.16308491E-01
     12  -6.75561975E+00  -6.26816144E+00   4.87458311E-01
     13  -6.84803891E+00  -6.38497422E+00   4.63064685E-01
     14  -6.94350739E+00  -6.48720701E+00   4.56300379E-01
     15  -7.00840584E+00  -6.57965921E+00   4.28746629E-01
     16  -7.06789103E+00  -6.65486849E+00   4.13022539E-01
     17  -7.13046859E+00  -6.71764468E+00   4.12823910E-01
     18  -7.19689471E+00  -6.77512037E+00   4.21774341E-01
     19  -7.24964631E+00  -6.82979821E+00   4.19848100E-01
     20  -7.28619299E+00  -6.87905703E+00   4.07135962E-01
     21  -7.32780443E+00  -6.92225347E+00   4.05550963E-01
     22  -7.36607460E+00  -6.96065500E+00   4.05419606E-01
     23  -7.40213329E+00  -6.99450419E+00   4.07629106E-01
     24  -7.43341466E+00  -7.02658613E+00   4.06828532E-01
     25  -7.46122354E+00  -7.05438242E+00   4.06841124E-01
     26  -7.48443991E+00  -7.08048079E+00   4.03959115E-01
     27  -7.51167720E+00  -7.10550805E+00   4.06169155E-01
     28  -7.53173118E+00  -7.12822828E+00   4.03502899E-01
     29  -7.55004453E+00  -7.14784062E+00   4.02203904E-01
     30  -7.56918411E+00  -7.16641351E+00   4.02770600E-01
     31  -7.58893551E+00  -7.18430225E+00   4.04633260E-01
     32  -7.60593939E+00  -7.20168421E+00   4.04255182E-01
# k =   0.000000   0.200000   0.800000 spin = 1
# <ib|Sigma_CH[1..Nb]|ib> (eV), partial and symmetrized sum with up to Nb "inner" bands
# Reporting only VBM and CBM, use 'full_ch_conv_log 1' keyword for full report.
# 1/N extrap for CH(vbm) CH(cbm) diff =  -8.36773672E+00  -8.20419509E+00   1.63541633E-01
# Error est. for CH(vbm) CH(cbm) diff =   5.93761457E-01   5.86706277E-01  -7.05518033E-03
#    Nb          CH(vbm)          CH(cbm)             diff
      1  -7.99855073E-01  -7.92491019E-01   7.36405424E-03
      2  -1.80929986E+00  -1.46874099E+00   3.40558865E-01
      3  -2.96193424E+00  -2.06347547E+00   8.98458773E-01
      4  -5.09172646E+00  -2.53522327E+00   2.55650319E+00
      5  -5.31955394E+00  -4.19721855E+00   1.12233539E+00
      6  -5.62632471E+00  -4.59758818E+00   1.02873653E+00
      7  -5.92946358E+00  -5.31044614E+00   6.19017442E-01
      8  -6.20689469E+00  -5.73478794E+00   4.72106746E-01
      9  -6.42638862E+00  -5.98275306E+00   4.43635557E-01
     10  -6.61073616E+00  -6.23806746E+00   3.72668693E-01
     11  -6.73637058E+00  -6.42329717E+00   3.13073414E-01
     12  -6.85100825E+00  -6.57405645E+00   2.76951799E-01
     13  -6.95182331E+00  -6.70121471E+00   2.50608600E-01
     14  -7.05941931E+00  -6.82587593E+00   2.33543377E-01
     15  -7.12618418E+00  -6.92311836E+00   2.03065829E-01
     16  -7.18853575E+00  -7.00315647E+00   1.85379287E-01
     17  -7.25642163E+00  -7.07703174E+00   1.79389886E-01
     18  -7.33051309E+00  -7.14314072E+00   1.87372369E-01
     19  -7.38721980E+00  -7.20631683E+00   1.80902970E-01
     20  -7.42393165E+00  -7.25737643E+00   1.66555217E-01
     21  -7.47143313E+00  -7.30612446E+00   1.65308668E-01
     22  -7.51227054E+00  -7.34788814E+00   1.64382397E-01
     23  -7.55187008E+00  -7.38767916E+00   1.64190925E-01
     24  -7.58547725E+00  -7.42283177E+00   1.62645489E-01
     25  -7.61506158E+00  -7.45291371E+00   1.62147876E-01
     26  -7.64105262E+00  -7.48289949E+00   1.58153127E-01
     27  -7.67138199E+00  -7.51005045E+00   1.61331540E-01
     28  -7.69276880E+00  -7.53518983E+00   1.57578968E-01
     29  -7.71255166E+00  -7.55679506E+00   1.55756606E-01
     30  -7.73323124E+00  -7.57729674E+00   1.55934503E-01
     31  -7.75503475E+00  -7.59786692E+00   1.57167826E-01
     32  -7.77397526E+00  -7.61748881E+00   1.56486453E-01
# k =   0.000000   0.400000   0.400000 spin = 1
# <ib|Sigma_CH[1..Nb]|ib> (eV), partial and symmetrized sum with up to Nb "inner" bands
# Reporting only VBM and CBM, use 'full_ch_conv_log 1' keyword for full report.
# 1/N extrap for CH(vbm) CH(cbm) diff =  -7.91517885E+00  -7.36011390E+00   5.55064943E-01
# Error est. for CH(vbm) CH(cbm) diff =   4.87875483E-01   4.49915744E-01  -3.79597389E-02
#    Nb          CH(vbm)          CH(cbm)             diff
      1  -9.55686041E-01  -6.91606924E-01   2.64079117E-01
      2  -1.84494581E+00  -1.26484908E+00   5.80096732E-01
      3  -3.39891961E+00  -1.96951029E+00   1.42940932E+00
      4  -5.02785658E+00  -2.27248106E+00   2.75537552E+00
      5  -5.30369701E+00  -4.25179547E+00   1.05190154E+00
      6  -5.62937914E+00  -4.89972742E+00   7.29651715E-01
      7  -5.89309571E+00  -5.22281050E+00   6.70285207E-01
      8  -6.10282535E+00  -5.48342865E+00   6.19396701E-01
      9  -6.29263110E+00  -5.65662698E+00   6.36004118E-01
     10  -6.44155104E+00  -5.82951889E+00   6.12032147E-01
     11  -6.54648008E+00  -5.98083426E+00   5.65645822E-01
     12  -6.64707808E+00  -6.10232312E+00   5.44754955E-01
     13  -6.73398626E+00  -6.20290689E+00   5.31079374E-01
     14  -6.82039745E+00  -6.29090260E+00   5.29494849E-01
     15  -6.87832407E+00  -6.36611101E+00   5.12213066E-01
     16  -6.93651510E+00  -6.43309578E+00   5.03419316E-01
     17  -6.99403634E+00  -6.48827719E+00   5.05759148E-01
     18  -7.05341879E+00  -6.53842215E+00   5.14996646E-01
     19  -7.10246206E+00  -6.58612934E+00   5.16332712E-01
     20  -7.13791374E+00  -6.62764059E+00   5.10273142E-01
     21  -7.17396468E+00  -6.66454723E+00   5.09417452E-01
     22  -7.20938892E+00  -6.69796961E+00   5.11419312E-01
     23  -7.24177776E+00  -6.72910204E+00   5.12675726E-01
     24  -7.27031429E+00  -6.75784151E+00   5.12472784E-01
     25  -7.29597792E+00  -6.78206335E+00   5.13914573E-01
     26  -7.31735521E+00  -6.80483610E+00   5.12519113E-01
     27  -7.34141880E+00  -6.82609612E+00   5.15322684E-01
     28  -7.35994463E+00  -6.84627187E+00   5.13672763E-01
     29  -7.37683349E+00  -6.86365515E+00   5.13178335E-01
     30  -7.39455946E+00  -6.88019533E+00   5.14364128E-01
     31  -7.41215531E+00  -6.89564655E+00   5.16508759E-01
     32  -7.42730336E+00  -6.91019816E+00   5.17105204E-01
# k =   0.000000   0.400000   0.600000 spin = 1
# <ib|Sigma_CH[1..Nb]|ib> (eV), partial and symmetrized sum with up to Nb "inner" bands
# Reporting only VBM and CBM, use 'full_ch_conv_log 1' keyword for full report.
# 1/N extrap for CH(vbm) CH(cbm) diff =  -7.94488380E+00  -7.36283366E+00   5.82050139E-01
# Error est. for CH(vbm) CH(cbm) diff =   4.94242877E-01   4.57809837E-01  -3.64330399E-02
#    Nb          CH(vbm)          CH(cbm)             diff
      1  -9.45685368E-01  -6.65771931E-01   2.79913436E-01
      2  -1.79822336E+00  -1.23284192E+00   5.65381437E-01
      3  -2.91110427E+00  -1.85585581E+00   1.05524846E+00
      4  -5.03569369E+00  -2.21461829E+00   2.82107540E+00
      5  -5.31191749E+00  -4.06042058E+00   1.25149691E+00
      6  -5.61467354E+00  -4.77729768E+00   8.37375853E-01
      7  -5.90368996E+00  -5.13640595E+00   7.67284007E-01
      8  -6.11539376E+00  -5.41799017E+00   6.97403591E-01
      9  -6.30219762E+00  -5.60989004E+00   6.92307585E-01
     10  -6.45598874E+00  -5.80492535E+00   6.51063386E-01
     11  -6.56214333E+00  -5.95088749E+00   6.11255847E-01
     12  -6.66234451E+00  -6.07486739E+00   5.87477123E-01
     13  -6.74863365E+00  -6.17654921E+00   5.72084435E-01
